)LJ Voltage (V) to Resistance (ohms): Calibration data with LabJack, preamp 1, demod board. Taken Jan 2017 by NPL
0.00000  0.00000
0.02449  120.73925
0.04898  294.27424
0.07347  467.86548
0.09796  641.51341
0.12245  815.21847
0.14694  988.98109
0.17143  1162.80172
0.19592  1336.68080
0.22041  1510.61877
0.24490  1684.61607
0.26939  1858.67315
0.29388  2032.79043
0.31837  2206.96837
0.34286  2381.20740
0.36735  2555.50797
0.39184  2729.87051
0.41633  2904.29547
0.44082  3078.78328
0.46531  3253.33439
0.48980  3427.94924
0.51429  3602.62826
0.53878  3777.37191
0.56327  3952.18061
0.58776  4127.05481
0.61224  4301.99496
0.63673  4477.00149
0.66122  4652.07484
0.68571  4827.21545
0.71020  5002.42376
0.73469  5177.70022
0.75918  5353.04527
0.78367  5528.45934
0.80816  5703.94288
0.83265  5879.49632
0.85714  6055.12011
0.88163  6230.81470
0.90612  6406.58050
0.93061  6582.41798
0.95510  6758.32757
0.97959  6934.30972
1.00408  7110.36485
1.02857  7286.49341
1.05306  7462.69585
1.07755  7638.97260
1.10204  7815.32411
1.12653  7991.75081
1.15102  8168.25315
1.17551  8344.83156
1.20000  8521.48650
