)LJ Voltage (V) to Resistance (ohms): Calibration data with LabJack, preamp 1, demod board. Taken Jan 2017 by NPL
0.00000  0.00000
0.02449  108.51575
0.04898  282.10398
0.07347  455.66776
0.09796  629.21090
0.12245  802.73718
0.14694  976.25038
0.17143  1149.75431
0.19592  1323.25275
0.22041  1496.74949
0.24490  1670.24832
0.26939  1843.75303
0.29388  2017.26741
0.31837  2190.79525
0.34286  2364.34035
0.36735  2537.90648
0.39184  2711.49744
0.41633  2885.11703
0.44082  3058.76902
0.46531  3232.45721
0.48980  3406.18540
0.51429  3579.95736
0.53878  3753.77690
0.56327  3927.64780
0.58776  4101.57384
0.61224  4275.55883
0.63673  4449.60654
0.66122  4623.72078
0.68571  4797.90533
0.71020  4972.16397
0.73469  5146.50051
0.75918  5320.91873
0.78367  5495.42242
0.80816  5670.01536
0.83265  5844.70136
0.85714  6019.48420
0.88163  6194.36767
0.90612  6369.35555
0.93061  6544.45165
0.95510  6719.65975
0.97959  6894.98364
1.00408  7070.42710
1.02857  7245.99394
1.05306  7421.68794
1.07755  7597.51289
1.10204  7773.47257
1.12653  7949.57079
1.15102  8125.81133
1.17551  8302.19797
1.20000  8478.73452
