)LJ Voltage (V) to Resistance (ohms): Calibration data with LabJack, preamp 1, demod board. Taken Jan 2017 by NPL
0.00000  0.00000
0.02449  105.30624
0.04898  279.85102
0.07347  454.37467
0.09796  628.88078
0.12245  803.37295
0.14694  977.85477
0.17143  1152.32985
0.19592  1326.80177
0.22041  1501.27413
0.24490  1675.75054
0.26939  1850.23458
0.29388  2024.72985
0.31837  2199.23995
0.34286  2373.76847
0.36735  2548.31902
0.39184  2722.89518
0.41633  2897.50055
0.44082  3072.13874
0.46531  3246.81332
0.48980  3421.52791
0.51429  3596.28610
0.53878  3771.09148
0.56327  3945.94765
0.58776  4120.85820
0.61224  4295.82674
0.63673  4470.85686
0.66122  4645.95215
0.68571  4821.11621
0.71020  4996.35264
0.73469  5171.66503
0.75918  5347.05698
0.78367  5522.53208
0.80816  5698.09394
0.83265  5873.74614
0.85714  6049.49229
0.88163  6225.33598
0.90612  6401.28080
0.93061  6577.33036
0.95510  6753.48825
0.97959  6929.75806
1.00408  7106.14339
1.02857  7282.64784
1.05306  7459.27500
1.07755  7636.02847
1.10204  7812.91185
1.12653  7989.92872
1.15102  8167.08270
1.17551  8344.37737
1.20000  8521.81633
