)LJ Voltage (V) to Resistance (ohms): Calibration data with LabJack, preamp 1, demod board. Taken Jan 2017 by NPL
0.00000  0.00000
0.02449  112.81576
0.04898  285.94476
0.07347  459.09174
0.09796  632.25882
0.12245  805.44812
0.14694  978.66178
0.17143  1151.90190
0.19592  1325.17063
0.22041  1498.47008
0.24490  1671.80238
0.26939  1845.16965
0.29388  2018.57402
0.31837  2192.01760
0.34286  2365.50253
0.36735  2539.03092
0.39184  2712.60491
0.41633  2886.22662
0.44082  3059.89816
0.46531  3233.62167
0.48980  3407.39927
0.51429  3581.23308
0.53878  3755.12523
0.56327  3929.07784
0.58776  4103.09303
0.61224  4277.17294
0.63673  4451.31968
0.66122  4625.53537
0.68571  4799.82215
0.71020  4974.18214
0.73469  5148.61745
0.75918  5323.13022
0.78367  5497.72257
0.80816  5672.39662
0.83265  5847.15450
0.85714  6021.99833
0.88163  6196.93024
0.90612  6371.95234
0.93061  6547.06677
0.95510  6722.27565
0.97959  6897.58110
1.00408  7072.98525
1.02857  7248.49022
1.05306  7424.09813
1.07755  7599.81111
1.10204  7775.63128
1.12653  7951.56077
1.15102  8127.60170
1.17551  8303.75620
1.20000  8480.02639
