)LJ Voltage (V) to Resistance (ohms): Calibration data with LabJack, preamp 1, demod board. Taken Jan 2017 by NPL
0.00000  0.00000
0.02449  126.11981
0.04898  298.31321
0.07347  470.54193
0.09796  642.80748
0.12245  815.11139
0.14694  987.45518
0.17143  1159.84037
0.19592  1332.26848
0.22041  1504.74104
0.24490  1677.25957
0.26939  1849.82559
0.29388  2022.44063
0.31837  2195.10620
0.34286  2367.82383
0.36735  2540.59505
0.39184  2713.42136
0.41633  2886.30431
0.44082  3059.24540
0.46531  3232.24616
0.48980  3405.30811
0.51429  3578.43278
0.53878  3751.62169
0.56327  3924.87636
0.58776  4098.19832
0.61224  4271.58907
0.63673  4445.05016
0.66122  4618.58310
0.68571  4792.18941
0.71020  4965.87061
0.73469  5139.62823
0.75918  5313.46379
0.78367  5487.37882
0.80816  5661.37482
0.83265  5835.45334
0.85714  6009.61589
0.88163  6183.86398
0.90612  6358.19915
0.93061  6532.62292
0.95510  6707.13681
0.97959  6881.74234
1.00408  7056.44103
1.02857  7231.23441
1.05306  7406.12400
1.07755  7581.11132
1.10204  7756.19789
1.12653  7931.38524
1.15102  8106.67489
1.17551  8282.06836
1.20000  8457.56717
